# CJ state isentrope
# CALCULATION RUN ON 2018-01-02

# INITIAL CONDITIONS
# TEMPERATURE (K) 295.0
# PRESSURE (ATM) 1.0
# DENSITY (KG/M^3) 1.2645
# SPECIES MOLE FRACTIONS: C2H4:1 O2:3.01
# MECHANISM: gri30_highT.cti
# CJ speed (M/S) 2372.16

# THE OUTPUT DATA COLUMNS ARE:
Variables = "Specific Volume (m3/kg)", "Temperature (K)", "Pressure (Pa)", "sound speed (eq)(m/s)", "fluid speed (m/s)"
4.2745E-01 	 3932.5 	 3.3695E+06 	 1280.6 	 1090.0
4.3173E-01 	 3928.5 	 3.3315E+06 	 1279.7 	 1077.2
4.3605E-01 	 3924.6 	 3.2940E+06 	 1278.7 	 1064.5
4.4041E-01 	 3920.7 	 3.2569E+06 	 1277.8 	 1051.8
4.4481E-01 	 3916.7 	 3.2202E+06 	 1276.8 	 1039.1
4.4926E-01 	 3912.8 	 3.1840E+06 	 1275.9 	 1026.4
4.5375E-01 	 3908.9 	 3.1481E+06 	 1274.9 	 1013.7
4.5829E-01 	 3905.0 	 3.1127E+06 	 1274.0 	 1001.0
4.6287E-01 	 3901.1 	 3.0776E+06 	 1273.0 	 988.3
4.6750E-01 	 3897.2 	 3.0430E+06 	 1272.1 	 975.7
4.7217E-01 	 3893.4 	 3.0087E+06 	 1271.2 	 963.0
4.7690E-01 	 3889.5 	 2.9749E+06 	 1270.2 	 950.4
4.8167E-01 	 3885.6 	 2.9414E+06 	 1269.3 	 937.7
4.8648E-01 	 3881.8 	 2.9083E+06 	 1268.3 	 925.1
4.9135E-01 	 3878.0 	 2.8756E+06 	 1267.4 	 912.5
4.9626E-01 	 3874.1 	 2.8433E+06 	 1266.5 	 899.9
5.0122E-01 	 3870.3 	 2.8113E+06 	 1265.5 	 887.3
5.0624E-01 	 3866.5 	 2.7797E+06 	 1264.6 	 874.7
5.1130E-01 	 3862.7 	 2.7484E+06 	 1263.7 	 862.1
5.1641E-01 	 3858.9 	 2.7175E+06 	 1262.7 	 849.6
5.2157E-01 	 3855.1 	 2.6870E+06 	 1261.8 	 837.0
5.2679E-01 	 3851.3 	 2.6568E+06 	 1260.9 	 824.5
5.3206E-01 	 3847.5 	 2.6269E+06 	 1260.0 	 811.9
5.3738E-01 	 3843.7 	 2.5974E+06 	 1259.1 	 799.4
5.4275E-01 	 3840.0 	 2.5682E+06 	 1258.1 	 786.9
5.4818E-01 	 3836.2 	 2.5394E+06 	 1257.2 	 774.3
5.5366E-01 	 3832.4 	 2.5108E+06 	 1256.3 	 761.8
5.5920E-01 	 3828.7 	 2.4826E+06 	 1255.4 	 749.3
5.6479E-01 	 3825.0 	 2.4547E+06 	 1254.5 	 736.9
5.7044E-01 	 3821.2 	 2.4272E+06 	 1253.6 	 724.4
5.7614E-01 	 3817.5 	 2.3999E+06 	 1252.7 	 711.9
5.8190E-01 	 3813.8 	 2.3730E+06 	 1251.7 	 699.5
5.8772E-01 	 3810.1 	 2.3463E+06 	 1250.8 	 687.0
5.9360E-01 	 3806.4 	 2.3200E+06 	 1249.9 	 674.6
5.9954E-01 	 3802.7 	 2.2940E+06 	 1249.0 	 662.1
6.0553E-01 	 3799.0 	 2.2682E+06 	 1248.1 	 649.7
6.1159E-01 	 3795.4 	 2.2428E+06 	 1247.2 	 637.3
6.1770E-01 	 3791.7 	 2.2176E+06 	 1246.3 	 624.9
6.2388E-01 	 3788.0 	 2.1927E+06 	 1245.4 	 612.5
6.3012E-01 	 3784.4 	 2.1681E+06 	 1244.5 	 600.1
6.3642E-01 	 3780.7 	 2.1438E+06 	 1243.6 	 587.7
6.4278E-01 	 3777.1 	 2.1198E+06 	 1242.7 	 575.3
6.4921E-01 	 3773.5 	 2.0960E+06 	 1241.9 	 563.0
6.5570E-01 	 3769.8 	 2.0725E+06 	 1241.0 	 550.6
6.6226E-01 	 3766.2 	 2.0492E+06 	 1240.1 	 538.3
6.6888E-01 	 3762.6 	 2.0263E+06 	 1239.2 	 526.0
6.7557E-01 	 3759.0 	 2.0036E+06 	 1238.3 	 513.6
6.8233E-01 	 3755.4 	 1.9811E+06 	 1237.4 	 501.3
6.8915E-01 	 3751.8 	 1.9589E+06 	 1236.5 	 489.0
6.9604E-01 	 3748.2 	 1.9369E+06 	 1235.7 	 476.7
7.0300E-01 	 3744.7 	 1.9152E+06 	 1234.8 	 464.4
7.1003E-01 	 3741.1 	 1.8938E+06 	 1233.9 	 452.1
7.1713E-01 	 3737.5 	 1.8726E+06 	 1233.0 	 439.9
7.2431E-01 	 3734.0 	 1.8516E+06 	 1232.2 	 427.6
7.3155E-01 	 3730.5 	 1.8309E+06 	 1231.3 	 415.3
7.3886E-01 	 3726.9 	 1.8104E+06 	 1230.4 	 403.1
7.4625E-01 	 3723.4 	 1.7901E+06 	 1229.5 	 390.9
7.5372E-01 	 3719.9 	 1.7700E+06 	 1228.7 	 378.6
7.6125E-01 	 3716.3 	 1.7502E+06 	 1227.8 	 366.4
7.6886E-01 	 3712.8 	 1.7306E+06 	 1226.9 	 354.2
7.7655E-01 	 3709.3 	 1.7113E+06 	 1226.1 	 342.0
7.8432E-01 	 3705.8 	 1.6921E+06 	 1225.2 	 329.8
7.9216E-01 	 3702.3 	 1.6732E+06 	 1224.3 	 317.6
8.0008E-01 	 3698.9 	 1.6544E+06 	 1223.5 	 305.4
8.0808E-01 	 3695.4 	 1.6359E+06 	 1222.6 	 293.3
8.1617E-01 	 3691.9 	 1.6176E+06 	 1221.8 	 281.1
8.2433E-01 	 3688.4 	 1.5995E+06 	 1220.9 	 268.9
8.3257E-01 	 3685.0 	 1.5816E+06 	 1220.1 	 256.8
8.4090E-01 	 3681.5 	 1.5640E+06 	 1219.2 	 244.7
8.4931E-01 	 3678.1 	 1.5465E+06 	 1218.4 	 232.5
8.5780E-01 	 3674.7 	 1.5292E+06 	 1217.5 	 220.4
8.6638E-01 	 3671.2 	 1.5121E+06 	 1216.7 	 208.3
8.7504E-01 	 3667.8 	 1.4952E+06 	 1215.8 	 196.2
8.8379E-01 	 3664.4 	 1.4785E+06 	 1215.0 	 184.1
8.9263E-01 	 3661.0 	 1.4619E+06 	 1214.1 	 172.0
9.0155E-01 	 3657.6 	 1.4456E+06 	 1213.3 	 159.9
9.1057E-01 	 3654.2 	 1.4294E+06 	 1212.4 	 147.9
9.1968E-01 	 3650.8 	 1.4135E+06 	 1211.6 	 135.8
9.2887E-01 	 3647.4 	 1.3977E+06 	 1210.8 	 123.8
9.3816E-01 	 3644.0 	 1.3821E+06 	 1209.9 	 111.7
9.4754E-01 	 3640.6 	 1.3666E+06 	 1209.1 	 99.7
9.5702E-01 	 3637.3 	 1.3514E+06 	 1208.2 	 87.7
9.6659E-01 	 3633.9 	 1.3363E+06 	 1207.4 	 75.6
9.7625E-01 	 3630.6 	 1.3213E+06 	 1206.6 	 63.6
9.8602E-01 	 3627.2 	 1.3066E+06 	 1205.7 	 51.6
9.9588E-01 	 3623.9 	 1.2920E+06 	 1204.9 	 39.6
1.0058E+00 	 3620.5 	 1.2776E+06 	 1204.1 	 27.7
1.0159E+00 	 3617.2 	 1.2633E+06 	 1203.3 	 15.7
1.0261E+00 	 3613.9 	 1.2492E+06 	 1202.4 	 3.7
1.0434E+00 	 3608.3 	 1.2353E+06 	 1201.0 	 0.0
