# ZND: DETONATION STRUCTURE CALCULATION
# CALCULATION RUN ON January 02, 2018

# INITIAL CONDITIONS
# TEMPERATURE (K) 300.0
# PRESSURE (Pa) 1.0
# DENSITY (KG/M^3) 8.3836e-01
# SHOCK SPEED (M/S) 3000.00

# Induction Times
# Time to Peak Thermicity =   1.9000e-08 s
# Distance to Peak Thermicity =   8.8120e-06 m

# Exothermic/Reaction Times
# Exothermic Pulse Time =   2.5000e-08 s
# Exothermic Pulse Distance =   1.2338e-05 m
# REACTION ZONE STRUCTURE

# THE OUTPUT DATA COLUMNS ARE:
Variables = "Distance(m)", "Mach Number", "Time(s)", "Pressure(Pa)", "Temperature(K)", "Density(kg/m^3)", "Thermicity(1/s)"
   0.00000e+00 	    3.72888e-01 	    0.00000e+00 	    6.48609e+06 	    2.98923e+03 	    5.45724e+00 	   -1.43480e+05
   4.60835e-07 	    3.72857e-01 	    1.00000e-09 	    6.48625e+06 	    2.98888e+03 	    5.45799e+00 	   -1.04785e+05
   9.21613e-07 	    3.72832e-01 	    2.00000e-09 	    6.48638e+06 	    2.98857e+03 	    5.45861e+00 	   -9.19712e+04
   1.38234e-06 	    3.72810e-01 	    3.00000e-09 	    6.48650e+06 	    2.98830e+03 	    5.45914e+00 	   -7.49556e+04
   1.84303e-06 	    3.72795e-01 	    4.00000e-09 	    6.48658e+06 	    2.98810e+03 	    5.45954e+00 	   -4.77130e+04
   2.30370e-06 	    3.72789e-01 	    5.00000e-09 	    6.48662e+06 	    2.98801e+03 	    5.45971e+00 	   -4.60776e+03
   2.76436e-06 	    3.72798e-01 	    6.00000e-09 	    6.48658e+06 	    2.98809e+03 	    5.45955e+00 	    6.08201e+04
   3.22506e-06 	    3.72830e-01 	    7.00000e-09 	    6.48644e+06 	    2.98845e+03 	    5.45888e+00 	    1.58036e+05
   3.68584e-06 	    3.72894e-01 	    8.00000e-09 	    6.48614e+06 	    2.98920e+03 	    5.45745e+00 	    3.00034e+05
   4.14679e-06 	    3.73007e-01 	    9.00000e-09 	    6.48561e+06 	    2.99054e+03 	    5.45494e+00 	    5.03614e+05
   4.60801e-06 	    3.73188e-01 	    1.00000e-08 	    6.48474e+06 	    2.99272e+03 	    5.45090e+00 	    7.88449e+05
   5.06966e-06 	    3.73462e-01 	    1.10000e-08 	    6.48343e+06 	    2.99605e+03 	    5.44474e+00 	    1.17345e+06
   5.53194e-06 	    3.73860e-01 	    1.20000e-08 	    6.48152e+06 	    3.00093e+03 	    5.43582e+00 	    1.66992e+06
   5.99512e-06 	    3.74413e-01 	    1.30000e-08 	    6.47887e+06 	    3.00779e+03 	    5.42343e+00 	    2.27116e+06
   6.45954e-06 	    3.75148e-01 	    1.40000e-08 	    6.47533e+06 	    3.01702e+03 	    5.40703e+00 	    2.94204e+06
   6.92554e-06 	    3.76077e-01 	    1.50000e-08 	    6.47085e+06 	    3.02887e+03 	    5.38641e+00 	    3.61410e+06
   7.39351e-06 	    3.77190e-01 	    1.60000e-08 	    6.46548e+06 	    3.04331e+03 	    5.36188e+00 	    4.19556e+06
   7.86377e-06 	    3.78453e-01 	    1.70000e-08 	    6.45939e+06 	    3.05999e+03 	    5.33433e+00 	    4.60237e+06
   8.33655e-06 	    3.79809e-01 	    1.80000e-08 	    6.45283e+06 	    3.07828e+03 	    5.30502e+00 	    4.79670e+06
   8.81198e-06 	    3.81202e-01 	    1.90000e-08 	    6.44610e+06 	    3.09742e+03 	    5.27524e+00 	    4.80624e+06
   9.29008e-06 	    3.82587e-01 	    2.00000e-08 	    6.43940e+06 	    3.11679e+03 	    5.24593e+00 	    4.69893e+06
   9.77082e-06 	    3.83939e-01 	    2.10000e-08 	    6.43285e+06 	    3.13594e+03 	    5.21759e+00 	    4.54216e+06
   1.02541e-05 	    3.85251e-01 	    2.20000e-08 	    6.42649e+06 	    3.15468e+03 	    5.19035e+00 	    4.37806e+06
   1.07399e-05 	    3.86521e-01 	    2.30000e-08 	    6.42032e+06 	    3.17289e+03 	    5.16420e+00 	    4.22237e+06
   1.12281e-05 	    3.87752e-01 	    2.40000e-08 	    6.41433e+06 	    3.19057e+03 	    5.13905e+00 	    4.07744e+06
   1.17187e-05 	    3.88946e-01 	    2.50000e-08 	    6.40850e+06 	    3.20770e+03 	    5.11486e+00 	    3.93910e+06
   1.22116e-05 	    3.90104e-01 	    2.60000e-08 	    6.40285e+06 	    3.22430e+03 	    5.09157e+00 	    3.80445e+06
   1.27066e-05 	    3.91227e-01 	    2.70000e-08 	    6.39735e+06 	    3.24037e+03 	    5.06915e+00 	    3.67209e+06
   1.32038e-05 	    3.92314e-01 	    2.80000e-08 	    6.39203e+06 	    3.25592e+03 	    5.04760e+00 	    3.54181e+06
   1.37031e-05 	    3.93367e-01 	    2.90000e-08 	    6.38686e+06 	    3.27096e+03 	    5.02689e+00 	    3.41373e+06
   1.42045e-05 	    3.94385e-01 	    3.00000e-08 	    6.38186e+06 	    3.28551e+03 	    5.00699e+00 	    3.28849e+06
   1.47077e-05 	    3.95370e-01 	    3.10000e-08 	    6.37702e+06 	    3.29956e+03 	    4.98788e+00 	    3.16675e+06
   1.52129e-05 	    3.96322e-01 	    3.20000e-08 	    6.37234e+06 	    3.31315e+03 	    4.96954e+00 	    3.04891e+06
   1.57199e-05 	    3.97242e-01 	    3.30000e-08 	    6.36781e+06 	    3.32628e+03 	    4.95192e+00 	    2.93535e+06
   1.62287e-05 	    3.98131e-01 	    3.40000e-08 	    6.36343e+06 	    3.33898e+03 	    4.93501e+00 	    2.82624e+06
   1.67392e-05 	    3.98990e-01 	    3.50000e-08 	    6.35920e+06 	    3.35126e+03 	    4.91876e+00 	    2.72165e+06
   1.72513e-05 	    3.99820e-01 	    3.60000e-08 	    6.35511e+06 	    3.36314e+03 	    4.90315e+00 	    2.62162e+06
   1.77650e-05 	    4.00623e-01 	    3.70000e-08 	    6.35115e+06 	    3.37463e+03 	    4.88815e+00 	    2.52613e+06
   1.82803e-05 	    4.01399e-01 	    3.80000e-08 	    6.34732e+06 	    3.38575e+03 	    4.87373e+00 	    2.43504e+06
   1.87971e-05 	    4.02150e-01 	    3.90000e-08 	    6.34361e+06 	    3.39652e+03 	    4.85985e+00 	    2.34815e+06
   1.93154e-05 	    4.02877e-01 	    4.00000e-08 	    6.34002e+06 	    3.40695e+03 	    4.84649e+00 	    2.26529e+06
   1.98350e-05 	    4.03581e-01 	    4.10000e-08 	    6.33655e+06 	    3.41705e+03 	    4.83363e+00 	    2.18632e+06
   2.03560e-05 	    4.04262e-01 	    4.20000e-08 	    6.33319e+06 	    3.42684e+03 	    4.82123e+00 	    2.11103e+06
   2.08783e-05 	    4.04921e-01 	    4.30000e-08 	    6.32993e+06 	    3.43633e+03 	    4.80929e+00 	    2.03921e+06
   2.14019e-05 	    4.05560e-01 	    4.40000e-08 	    6.32677e+06 	    3.44554e+03 	    4.79777e+00 	    1.97067e+06
   2.19267e-05 	    4.06180e-01 	    4.50000e-08 	    6.32371e+06 	    3.45447e+03 	    4.78665e+00 	    1.90523e+06
   2.24528e-05 	    4.06781e-01 	    4.60000e-08 	    6.32074e+06 	    3.46314e+03 	    4.77592e+00 	    1.84271e+06
   2.29800e-05 	    4.07363e-01 	    4.70000e-08 	    6.31786e+06 	    3.47155e+03 	    4.76555e+00 	    1.78296e+06
   2.35083e-05 	    4.07929e-01 	    4.80000e-08 	    6.31506e+06 	    3.47973e+03 	    4.75554e+00 	    1.72583e+06
   2.40377e-05 	    4.08477e-01 	    4.90000e-08 	    6.31235e+06 	    3.48766e+03 	    4.74586e+00 	    1.67114e+06
   2.45682e-05 	    4.09010e-01 	    5.00000e-08 	    6.30971e+06 	    3.49538e+03 	    4.73649e+00 	    1.61877e+06
   2.50997e-05 	    4.09527e-01 	    5.10000e-08 	    6.30715e+06 	    3.50287e+03 	    4.72744e+00 	    1.56858e+06
   2.56322e-05 	    4.10029e-01 	    5.20000e-08 	    6.30467e+06 	    3.51016e+03 	    4.71867e+00 	    1.52044e+06
   2.61657e-05 	    4.10518e-01 	    5.30000e-08 	    6.30225e+06 	    3.51725e+03 	    4.71018e+00 	    1.47425e+06
   2.67001e-05 	    4.10992e-01 	    5.40000e-08 	    6.29990e+06 	    3.52414e+03 	    4.70196e+00 	    1.42992e+06
   2.72355e-05 	    4.11453e-01 	    5.50000e-08 	    6.29762e+06 	    3.53084e+03 	    4.69400e+00 	    1.38733e+06
   2.77717e-05 	    4.11901e-01 	    5.60000e-08 	    6.29540e+06 	    3.53737e+03 	    4.68628e+00 	    1.34638e+06
   2.83088e-05 	    4.12337e-01 	    5.70000e-08 	    6.29324e+06 	    3.54372e+03 	    4.67880e+00 	    1.30699e+06
   2.88468e-05 	    4.12761e-01 	    5.80000e-08 	    6.29114e+06 	    3.54990e+03 	    4.67154e+00 	    1.26908e+06
   2.93856e-05 	    4.13174e-01 	    5.90000e-08 	    6.28910e+06 	    3.55592e+03 	    4.66450e+00 	    1.23259e+06
   2.99252e-05 	    4.13576e-01 	    6.00000e-08 	    6.28711e+06 	    3.56178e+03 	    4.65767e+00 	    1.19741e+06
   3.04655e-05 	    4.13967e-01 	    6.10000e-08 	    6.28518e+06 	    3.56749e+03 	    4.65105e+00 	    1.16348e+06
   3.10067e-05 	    4.14347e-01 	    6.20000e-08 	    6.28329e+06 	    3.57305e+03 	    4.64461e+00 	    1.13078e+06
   3.15485e-05 	    4.14717e-01 	    6.30000e-08 	    6.28146e+06 	    3.57847e+03 	    4.63836e+00 	    1.09926e+06
   3.20911e-05 	    4.15078e-01 	    6.40000e-08 	    6.27967e+06 	    3.58375e+03 	    4.63229e+00 	    1.06880e+06
   3.26344e-05 	    4.15429e-01 	    6.50000e-08 	    6.27793e+06 	    3.58889e+03 	    4.62640e+00 	    1.03933e+06
   3.31784e-05 	    4.15772e-01 	    6.60000e-08 	    6.27624e+06 	    3.59390e+03 	    4.62067e+00 	    1.01089e+06
   3.37230e-05 	    4.16105e-01 	    6.70000e-08 	    6.27458e+06 	    3.59879e+03 	    4.61510e+00 	    9.83417e+05
   3.42683e-05 	    4.16430e-01 	    6.80000e-08 	    6.27298e+06 	    3.60356e+03 	    4.60969e+00 	    9.56880e+05
   3.48142e-05 	    4.16746e-01 	    6.90000e-08 	    6.27141e+06 	    3.60821e+03 	    4.60443e+00 	    9.31195e+05
   3.53608e-05 	    4.17055e-01 	    7.00000e-08 	    6.26988e+06 	    3.61274e+03 	    4.59931e+00 	    9.06318e+05
   3.59079e-05 	    4.17355e-01 	    7.10000e-08 	    6.26839e+06 	    3.61716e+03 	    4.59433e+00 	    8.82197e+05
   3.64556e-05 	    4.17648e-01 	    7.20000e-08 	    6.26694e+06 	    3.62147e+03 	    4.58949e+00 	    8.58861e+05
   3.70039e-05 	    4.17934e-01 	    7.30000e-08 	    6.26552e+06 	    3.62567e+03 	    4.58478e+00 	    8.36275e+05
   3.75527e-05 	    4.18213e-01 	    7.40000e-08 	    6.26414e+06 	    3.62977e+03 	    4.58020e+00 	    8.14419e+05
   3.81021e-05 	    4.18484e-01 	    7.50000e-08 	    6.26279e+06 	    3.63377e+03 	    4.57574e+00 	    7.93197e+05
   3.86520e-05 	    4.18749e-01 	    7.60000e-08 	    6.26148e+06 	    3.63768e+03 	    4.57140e+00 	    7.72585e+05
   3.92025e-05 	    4.19008e-01 	    7.70000e-08 	    6.26020e+06 	    3.64149e+03 	    4.56717e+00 	    7.52558e+05
   3.97534e-05 	    4.19260e-01 	    7.80000e-08 	    6.25895e+06 	    3.64520e+03 	    4.56306e+00 	    7.33178e+05
   4.03048e-05 	    4.19505e-01 	    7.90000e-08 	    6.25773e+06 	    3.64883e+03 	    4.55905e+00 	    7.14437e+05
   4.08567e-05 	    4.19745e-01 	    8.00000e-08 	    6.25655e+06 	    3.65237e+03 	    4.55515e+00 	    6.96286e+05
   4.14091e-05 	    4.19979e-01 	    8.10000e-08 	    6.25539e+06 	    3.65583e+03 	    4.55135e+00 	    6.78573e+05
   4.19619e-05 	    4.20207e-01 	    8.20000e-08 	    6.25426e+06 	    3.65920e+03 	    4.54765e+00 	    6.61244e+05
   4.25152e-05 	    4.20430e-01 	    8.30000e-08 	    6.25315e+06 	    3.66249e+03 	    4.54405e+00 	    6.44355e+05
   4.30689e-05 	    4.20647e-01 	    8.40000e-08 	    6.25208e+06 	    3.66571e+03 	    4.54054e+00 	    6.28062e+05
   4.36230e-05 	    4.20859e-01 	    8.50000e-08 	    6.25103e+06 	    3.66885e+03 	    4.53712e+00 	    6.12408e+05
   4.41775e-05 	    4.21066e-01 	    8.60000e-08 	    6.25000e+06 	    3.67191e+03 	    4.53378e+00 	    5.97248e+05
   4.47325e-05 	    4.21268e-01 	    8.70000e-08 	    6.24900e+06 	    3.67490e+03 	    4.53053e+00 	    5.82423e+05
   4.52878e-05 	    4.21465e-01 	    8.80000e-08 	    6.24802e+06 	    3.67782e+03 	    4.52737e+00 	    5.67869e+05
   4.58435e-05 	    4.21657e-01 	    8.90000e-08 	    6.24707e+06 	    3.68067e+03 	    4.52428e+00 	    5.53700e+05
   4.63996e-05 	    4.21845e-01 	    9.00000e-08 	    6.24614e+06 	    3.68346e+03 	    4.52127e+00 	    5.39933e+05
   4.69561e-05 	    4.22028e-01 	    9.10000e-08 	    6.24523e+06 	    3.68618e+03 	    4.51834e+00 	    5.26556e+05
   4.75129e-05 	    4.22207e-01 	    9.20000e-08 	    6.24435e+06 	    3.68883e+03 	    4.51548e+00 	    5.13522e+05
   4.80700e-05 	    4.22381e-01 	    9.30000e-08 	    6.24348e+06 	    3.69143e+03 	    4.51270e+00 	    5.00855e+05
   4.86275e-05 	    4.22551e-01 	    9.40000e-08 	    6.24264e+06 	    3.69396e+03 	    4.50998e+00 	    4.88582e+05
   4.91854e-05 	    4.22718e-01 	    9.50000e-08 	    6.24181e+06 	    3.69643e+03 	    4.50733e+00 	    4.76619e+05
   4.97435e-05 	    4.22880e-01 	    9.60000e-08 	    6.24101e+06 	    3.69885e+03 	    4.50475e+00 	    4.64961e+05
   5.03020e-05 	    4.23039e-01 	    9.70000e-08 	    6.24022e+06 	    3.70121e+03 	    4.50223e+00 	    4.53575e+05
   5.08608e-05 	    4.23193e-01 	    9.80000e-08 	    6.23946e+06 	    3.70351e+03 	    4.49977e+00 	    4.42546e+05
   5.14199e-05 	    4.23345e-01 	    9.90000e-08 	    6.23871e+06 	    3.70577e+03 	    4.49738e+00 	    4.31867e+05
   5.19792e-05 	    4.23492e-01 	    1.00000e-07 	    6.23797e+06 	    3.70797e+03 	    4.49504e+00 	    4.21525e+05
   5.25389e-05 	    4.23636e-01 	    1.01000e-07 	    6.23726e+06 	    3.71011e+03 	    4.49276e+00 	    4.11319e+05
   5.30988e-05 	    4.23777e-01 	    1.02000e-07 	    6.23656e+06 	    3.71221e+03 	    4.49054e+00 	    4.01324e+05
   5.36591e-05 	    4.23914e-01 	    1.03000e-07 	    6.23588e+06 	    3.71426e+03 	    4.48837e+00 	    3.91522e+05
   5.42196e-05 	    4.24048e-01 	    1.04000e-07 	    6.23522e+06 	    3.71626e+03 	    4.48625e+00 	    3.81956e+05
   5.47803e-05 	    4.24179e-01 	    1.05000e-07 	    6.23457e+06 	    3.71822e+03 	    4.48419e+00 	    3.72674e+05
   5.53413e-05 	    4.24307e-01 	    1.06000e-07 	    6.23394e+06 	    3.72013e+03 	    4.48218e+00 	    3.63690e+05
   5.59025e-05 	    4.24432e-01 	    1.07000e-07 	    6.23332e+06 	    3.72200e+03 	    4.48021e+00 	    3.55047e+05
   5.64640e-05 	    4.24554e-01 	    1.08000e-07 	    6.23271e+06 	    3.72382e+03 	    4.47829e+00 	    3.46535e+05
   5.70258e-05 	    4.24673e-01 	    1.09000e-07 	    6.23212e+06 	    3.72560e+03 	    4.47642e+00 	    3.38223e+05
   5.75877e-05 	    4.24790e-01 	    1.10000e-07 	    6.23155e+06 	    3.72735e+03 	    4.47460e+00 	    3.30090e+05
   5.81499e-05 	    4.24903e-01 	    1.11000e-07 	    6.23098e+06 	    3.72905e+03 	    4.47282e+00 	    3.22136e+05
   5.87123e-05 	    4.25014e-01 	    1.12000e-07 	    6.23043e+06 	    3.73071e+03 	    4.47108e+00 	    3.14410e+05
   5.92750e-05 	    4.25122e-01 	    1.13000e-07 	    6.22990e+06 	    3.73233e+03 	    4.46939e+00 	    3.06881e+05
   5.98378e-05 	    4.25228e-01 	    1.14000e-07 	    6.22937e+06 	    3.73392e+03 	    4.46773e+00 	    2.99548e+05
   6.04008e-05 	    4.25331e-01 	    1.15000e-07 	    6.22886e+06 	    3.73547e+03 	    4.46612e+00 	    2.92390e+05
   6.09641e-05 	    4.25432e-01 	    1.16000e-07 	    6.22836e+06 	    3.73698e+03 	    4.46455e+00 	    2.85397e+05
   6.15275e-05 	    4.25531e-01 	    1.17000e-07 	    6.22788e+06 	    3.73846e+03 	    4.46301e+00 	    2.78565e+05
   6.20911e-05 	    4.25627e-01 	    1.18000e-07 	    6.22740e+06 	    3.73990e+03 	    4.46151e+00 	    2.71888e+05
   6.26550e-05 	    4.25721e-01 	    1.19000e-07 	    6.22693e+06 	    3.74132e+03 	    4.46005e+00 	    2.65394e+05
   6.32190e-05 	    4.25813e-01 	    1.20000e-07 	    6.22648e+06 	    3.74270e+03 	    4.45862e+00 	    2.59058e+05
   6.37831e-05 	    4.25902e-01 	    1.21000e-07 	    6.22604e+06 	    3.74404e+03 	    4.45722e+00 	    2.52876e+05
   6.43475e-05 	    4.25990e-01 	    1.22000e-07 	    6.22560e+06 	    3.74536e+03 	    4.45586e+00 	    2.46845e+05
   6.49120e-05 	    4.26075e-01 	    1.23000e-07 	    6.22518e+06 	    3.74665e+03 	    4.45453e+00 	    2.40960e+05
   6.54767e-05 	    4.26159e-01 	    1.24000e-07 	    6.22477e+06 	    3.74790e+03 	    4.45324e+00 	    2.35216e+05
   6.60416e-05 	    4.26240e-01 	    1.25000e-07 	    6.22436e+06 	    3.74913e+03 	    4.45197e+00 	    2.29610e+05
   6.66066e-05 	    4.26320e-01 	    1.26000e-07 	    6.22397e+06 	    3.75033e+03 	    4.45074e+00 	    2.24136e+05
   6.71717e-05 	    4.26398e-01 	    1.27000e-07 	    6.22358e+06 	    3.75150e+03 	    4.44954e+00 	    2.18791e+05
   6.77371e-05 	    4.26474e-01 	    1.28000e-07 	    6.22321e+06 	    3.75265e+03 	    4.44836e+00 	    2.13570e+05
   6.83025e-05 	    4.26548e-01 	    1.29000e-07 	    6.22284e+06 	    3.75377e+03 	    4.44721e+00 	    2.08468e+05
   6.88681e-05 	    4.26620e-01 	    1.30000e-07 	    6.22248e+06 	    3.75486e+03 	    4.44609e+00 	    2.03495e+05
   6.94339e-05 	    4.26691e-01 	    1.31000e-07 	    6.22213e+06 	    3.75593e+03 	    4.44500e+00 	    1.98639e+05
   6.99998e-05 	    4.26760e-01 	    1.32000e-07 	    6.22179e+06 	    3.75698e+03 	    4.44393e+00 	    1.93898e+05
   7.05658e-05 	    4.26828e-01 	    1.33000e-07 	    6.22146e+06 	    3.75799e+03 	    4.44289e+00 	    1.89271e+05
   7.11319e-05 	    4.26893e-01 	    1.34000e-07 	    6.22113e+06 	    3.75899e+03 	    4.44188e+00 	    1.84753e+05
   7.16982e-05 	    4.26958e-01 	    1.35000e-07 	    6.22081e+06 	    3.75996e+03 	    4.44089e+00 	    1.80341e+05
   7.22646e-05 	    4.27020e-01 	    1.36000e-07 	    6.22050e+06 	    3.76092e+03 	    4.43992e+00 	    1.76032e+05
   7.28312e-05 	    4.27082e-01 	    1.37000e-07 	    6.22020e+06 	    3.76184e+03 	    4.43897e+00 	    1.71824e+05
   7.33978e-05 	    4.27142e-01 	    1.38000e-07 	    6.21991e+06 	    3.76275e+03 	    4.43805e+00 	    1.67714e+05
   7.39646e-05 	    4.27200e-01 	    1.39000e-07 	    6.21962e+06 	    3.76364e+03 	    4.43715e+00 	    1.63698e+05
   7.45314e-05 	    4.27257e-01 	    1.40000e-07 	    6.21933e+06 	    3.76451e+03 	    4.43627e+00 	    1.59775e+05
   7.50984e-05 	    4.27313e-01 	    1.41000e-07 	    6.21906e+06 	    3.76535e+03 	    4.43542e+00 	    1.55946e+05
   7.56655e-05 	    4.27367e-01 	    1.42000e-07 	    6.21879e+06 	    3.76618e+03 	    4.43458e+00 	    1.52207e+05
   7.62327e-05 	    4.27420e-01 	    1.43000e-07 	    6.21853e+06 	    3.76699e+03 	    4.43377e+00 	    1.48555e+05
   7.68000e-05 	    4.27472e-01 	    1.44000e-07 	    6.21827e+06 	    3.76778e+03 	    4.43297e+00 	    1.44988e+05
   7.73674e-05 	    4.27523e-01 	    1.45000e-07 	    6.21802e+06 	    3.76855e+03 	    4.43219e+00 	    1.41506e+05
   7.79349e-05 	    4.27572e-01 	    1.46000e-07 	    6.21778e+06 	    3.76930e+03 	    4.43143e+00 	    1.38103e+05
   7.85025e-05 	    4.27621e-01 	    1.47000e-07 	    6.21754e+06 	    3.77004e+03 	    4.43069e+00 	    1.34780e+05
   7.90702e-05 	    4.27668e-01 	    1.48000e-07 	    6.21731e+06 	    3.77076e+03 	    4.42997e+00 	    1.31533e+05
   7.96380e-05 	    4.27714e-01 	    1.49000e-07 	    6.21708e+06 	    3.77146e+03 	    4.42927e+00 	    1.28361e+05
   8.02059e-05 	    4.27759e-01 	    1.50000e-07 	    6.21686e+06 	    3.77214e+03 	    4.42858e+00 	    1.25262e+05
   8.07738e-05 	    4.27803e-01 	    1.51000e-07 	    6.21664e+06 	    3.77281e+03 	    4.42791e+00 	    1.22234e+05
   8.13419e-05 	    4.27845e-01 	    1.52000e-07 	    6.21643e+06 	    3.77347e+03 	    4.42725e+00 	    1.19275e+05
   8.19100e-05 	    4.27887e-01 	    1.53000e-07 	    6.21622e+06 	    3.77411e+03 	    4.42662e+00 	    1.16383e+05
   8.24782e-05 	    4.27928e-01 	    1.54000e-07 	    6.21602e+06 	    3.77473e+03 	    4.42599e+00 	    1.13555e+05
   8.30465e-05 	    4.27968e-01 	    1.55000e-07 	    6.21583e+06 	    3.77534e+03 	    4.42538e+00 	    1.10796e+05
   8.36149e-05 	    4.28007e-01 	    1.56000e-07 	    6.21563e+06 	    3.77594e+03 	    4.42479e+00 	    1.08102e+05
   8.41833e-05 	    4.28045e-01 	    1.57000e-07 	    6.21545e+06 	    3.77652e+03 	    4.42421e+00 	    1.05469e+05
   8.47518e-05 	    4.28082e-01 	    1.58000e-07 	    6.21526e+06 	    3.77709e+03 	    4.42365e+00 	    1.02897e+05
   8.53204e-05 	    4.28118e-01 	    1.59000e-07 	    6.21509e+06 	    3.77765e+03 	    4.42310e+00 	    1.00383e+05
   8.58891e-05 	    4.28153e-01 	    1.60000e-07 	    6.21491e+06 	    3.77819e+03 	    4.42256e+00 	    9.79267e+04
   8.64578e-05 	    4.28187e-01 	    1.61000e-07 	    6.21474e+06 	    3.77872e+03 	    4.42204e+00 	    9.55259e+04
   8.70266e-05 	    4.28221e-01 	    1.62000e-07 	    6.21458e+06 	    3.77923e+03 	    4.42152e+00 	    9.31790e+04
   8.75954e-05 	    4.28254e-01 	    1.63000e-07 	    6.21442e+06 	    3.77974e+03 	    4.42103e+00 	    9.08851e+04
   8.81643e-05 	    4.28286e-01 	    1.64000e-07 	    6.21426e+06 	    3.78023e+03 	    4.42054e+00 	    8.86465e+04
